wavelength_um,reflectance
0.35,0.10
0.40,0.12
0.45,0.14
0.50,0.16
0.55,0.18
0.60,0.20
0.65,0.22
0.70,0.24
0.75,0.26
0.80,0.27
0.85,0.28
0.90,0.28
0.95,0.28
1.00,0.27
1.10,0.26
1.20,0.24
1.30,0.22
1.40,0.20
1.50,0.18
1.60,0.14
1.70,0.10
1.80,0.08
1.90,0.06
2.00,0.05
2.10,0.04
2.20,0.04
2.30,0.03
2.40,0.03
2.50,0.03
