wavelength_um,reflectance
0.35,0.08
0.40,0.10
0.45,0.12
0.50,0.14
0.55,0.16
0.60,0.18
0.65,0.20
0.70,0.22
0.75,0.24
0.80,0.25
0.85,0.26
0.90,0.27
0.95,0.28
1.00,0.28
1.10,0.28
1.20,0.27
1.30,0.26
1.40,0.24
1.50,0.22
1.60,0.18
1.70,0.14
1.80,0.12
1.90,0.10
2.00,0.08
2.10,0.06
2.20,0.05
2.30,0.04
2.40,0.04
2.50,0.04
