wavelength_um,reflectance
0.35,0.06
0.40,0.07
0.45,0.08
0.50,0.09
0.55,0.10
0.60,0.11
0.65,0.12
0.70,0.13
0.75,0.14
0.80,0.15
0.85,0.16
0.90,0.17
0.95,0.18
1.00,0.19
1.10,0.20
1.20,0.21
1.30,0.22
1.40,0.23
1.50,0.24
1.60,0.22
1.70,0.18
1.80,0.15
1.90,0.12
2.00,0.10
2.10,0.09
2.20,0.08
2.30,0.08
2.40,0.09
2.50,0.10
