wavelength_um,reflectance
0.35,0.04
0.40,0.05
0.45,0.06
0.50,0.07
0.55,0.08
0.60,0.09
0.65,0.10
0.70,0.11
0.75,0.12
0.80,0.13
0.85,0.14
0.90,0.15
0.95,0.16
1.00,0.17
1.10,0.18
1.20,0.19
1.30,0.20
1.40,0.21
1.50,0.22
1.60,0.18
1.70,0.12
1.80,0.08
1.90,0.06
2.00,0.05
2.10,0.04
2.20,0.05
2.30,0.06
2.40,0.07
2.50,0.08
